Time,Latitude,Longitude,counts
1746065572.82,37.87266723229082,-122.24112820401163,51.5
1746065574.82,37.87266723229082,-122.24112820401163,58.0
1746065576.8,37.87266723229082,-122.24112820401163,58.0
1746065578.82,37.872667232290816,-122.24112820401163,53.5
1746065580.83,37.872667232290816,-122.24112820401163,51.5
1746065582.82,37.8726672322907,-122.24112820401163,54.0
1746065584.82,37.87266723229054,-122.24112820401163,56.0
1746065586.79,37.87266723229034,-122.24112820401166,56.0
1746065588.82,37.872667232290055,-122.2411282040117,47.5
1746065590.84,37.87266723228969,-122.24112820401173,69.0
1746065592.86,37.87266723228929,-122.24112820401179,67.5
1746065594.82,37.87266723228884,-122.24112820401183,54.0
1746065596.8,37.87266723228832,-122.24112820401189,54.0
1746065598.82,37.872667232287725,-122.24112820401196,65.5
1746065600.82,37.872667232287064,-122.24112820401206,55.5
1746065602.82,37.87266723228635,-122.24112820401214,54.0
1746065604.82,37.87266723228562,-122.24112820401224,59.5
1746065606.8,37.8726672322848,-122.24112820401234,59.5
1746065608.82,37.87266723228389,-122.24112820401247,60.0
1746065610.82,37.8726672322829,-122.24112820401257,60.0
1746065612.82,37.87266723228223,-122.24112820401264,61.5
1746065614.83,37.87266723228118,-122.24112820401275,50.0
1746065616.8,37.87266723228005,-122.24112820401288,50.0
1746065618.86,37.87266723227884,-122.24112820401301,40.5
1746065620.82,37.87266723227759,-122.24112820401315,57.0
1746065622.82,37.8726672322763,-122.24112820401331,64.0
1746065624.85,37.87266723227497,-122.24112820401344,53.0
1746065626.81,37.872667232273564,-122.24112820401362,53.0
1746065628.82,37.872667232272086,-122.24112820401379,53.5
1746065630.82,37.87266723227056,-122.24112820401395,54.5
1746065632.82,37.872667232269,-122.24112820401412,55.0
1746065634.8,37.872667232267375,-122.24112820401433,55.0
1746065636.82,37.872667232265655,-122.2411282040145,50.5
1746065638.82,37.87266723226388,-122.24112820401469,50.0
1746065640.82,37.872667232262074,-122.24112820401488,52.0
1746065642.82,37.87266723226022,-122.24112820401511,57.5
1746065644.8,37.87266723225827,-122.24112820401534,57.5
1746065646.82,37.87266723225629,-122.24112820401557,61.5
1746065648.82,37.87266723225235,-122.24112820401604,51.5
1746065650.79,37.87266723225235,-122.24112820401604,51.5
1746065652.82,37.872667232250215,-122.24112820401629,45.0
1746065654.84,37.872667232248,-122.24112820401653,64.5
1746065656.82,37.872667232245725,-122.24112820401679,58.0
1746065658.82,37.872667232243415,-122.24112820401704,51.5
1746065660.8,37.87266723224105,-122.2411282040173,51.5
1746065662.82,37.87266723224105,-122.2411282040173,50.0
1746065664.83,37.87266723224105,-122.2411282040173,51.5
1746065666.82,37.87266723224105,-122.2411282040173,54.5
1746065668.82,37.87266723224105,-122.2411282040173,53.5
1746065670.81,37.87266723224105,-122.2411282040173,53.5
1746065672.82,37.872667232225496,-122.24112820401906,50.5
1746065674.82,37.872667232222675,-122.24112820401939,51.0
1746065676.82,37.87266723221978,-122.24112820401972,61.5
1746065678.8,37.872667232216884,-122.24112820402004,61.5
1746065680.82,37.87266723221389,-122.24112820402038,59.5
1746065682.85,37.87266723221082,-122.24112820402074,57.5
1746065684.82,37.87266723220768,-122.24112820402112,47.0
1746065686.82,37.87266723220451,-122.24112820402148,65.5
1746065688.8,37.872667232201316,-122.24112820402186,65.5
1746065690.83,37.87266723219801,-122.24112820402223,61.5
1746065692.82,37.872667232194644,-122.24112820402262,62.5
1746065694.82,37.87264554278222,-122.23990252102097,72.0
1746065696.82,37.8726152456942,-122.23989419900245,56.0
1746065698.82,37.8726152456942,-122.23989419900245,56.0
1746065700.82,37.872634118328335,-122.23994765001838,63.5
1746065702.82,37.87263411832802,-122.23994765001845,55.5
1746065704.82,37.872634118327646,-122.23994765001851,64.5
1746065706.8,37.87263411832724,-122.23994765001858,64.5
1746065708.82,37.872634118326765,-122.23994765001869,54.0
1746065710.82,37.87263411832621,-122.23994765001879,61.0
1746065712.84,37.87263411832559,-122.23994765001886,59.5
1746065714.82,37.87263411832493,-122.23994765001899,53.5
1746065716.8,37.87263411832423,-122.23994765001912,53.5
1746065718.82,37.87263411832344,-122.23994765001927,50.0
1746065720.82,37.872634118322466,-122.23994765001947,55.5
1746065722.82,37.872634118322466,-122.23994765001947,50.0
1746065724.82,37.872634118322466,-122.23994765001947,54.0
1746065726.8,37.872634118322466,-122.23994765001947,54.0
1746065728.83,37.872634118322466,-122.23994765001947,62.0
1746065730.82,37.872634118322466,-122.23994765001947,65.5
1746065732.82,37.872634118322466,-122.23994765001947,61.5
1746065734.79,37.872634118322466,-122.23994765001947,61.5
1746065736.82,37.872634118322466,-122.23994765001947,64.5
1746065738.82,37.872634118322466,-122.23994765001947,55.0
1746065740.82,37.872634118322466,-122.23994765001947,55.5
1746065742.82,37.872634118322466,-122.23994765001947,55.0
1746065744.79,37.872634118322466,-122.23994765001947,55.0
1746065746.82,37.872634118322466,-122.23994765001947,67.0
1746065748.84,37.872634118322466,-122.23994765001947,40.5
1746065750.82,37.872634118322466,-122.23994765001947,59.5
1746065752.8,37.872634118322466,-122.23994765001947,59.5
1746065754.82,37.872634118322466,-122.23994765001947,60.5
1746065756.82,37.872634118322466,-122.23994765001947,55.5
1746065758.84,37.872634118322466,-122.23994765001947,60.5
1746065760.82,37.872634118322466,-122.23994765001947,47.5
1746065762.8,37.872634118322466,-122.23994765001947,47.5
1746065764.82,37.872634118322466,-122.23994765001947,43.0
1746065766.82,37.872634118322466,-122.23994765001947,50.5
1746065768.82,37.872634118322466,-122.23994765001947,48.0
1746065770.82,37.872634118322466,-122.23994765001947,43.0
1746065772.82,37.872634118322466,-122.23994765001947,43.0
1746065774.82,37.872634118322466,-122.23994765001947,42.5
1746065776.82,37.872634118322466,-122.23994765001947,59.0
1746065778.82,37.872634118322466,-122.23994765001947,45.5
1746065780.8,37.872634118322466,-122.23994765001947,45.5
1746065782.82,37.872634118322466,-122.23994765001947,42.0
1746065784.82,37.872634118322466,-122.23994765001947,34.0
1746065786.82,37.872634118322466,-122.23994765001947,36.5
1746065788.84,37.872634118322466,-122.23994765001947,50.5
1746065790.8,37.872634118322466,-122.23994765001947,50.5
1746065792.82,37.872634118322466,-122.23994765001947,45.5
1746065794.82,37.872634118322466,-122.23994765001947,44.5
1746065796.82,37.872634118322466,-122.23994765001947,38.5
1746065798.82,37.872634118322466,-122.23994765001947,51.0
1746065800.81,37.872634118322466,-122.23994765001947,51.0
1746065802.82,37.872634118322466,-122.23994765001947,45.0
1746065804.82,37.872634118322466,-122.23994765001947,37.5
1746065806.82,37.872634118322466,-122.23994765001947,49.0
1746065808.8,37.872634118322466,-122.23994765001947,49.0
1746065810.82,37.872634118322466,-122.23994765001947,43.0
1746065812.82,37.872634118322466,-122.23994765001947,42.0
1746065814.82,37.872634118322466,-122.23994765001947,48.5
1746065816.82,37.872634118322466,-122.23994765001947,43.0
1746065818.81,37.872634118322466,-122.23994765001947,43.0
1746065820.82,37.872634118322466,-122.23994765001947,50.0
1746065822.82,37.872634118322466,-122.23994765001947,45.5
1746065824.82,37.872634118322466,-122.23994765001947,48.0
1746065826.8,37.872643577398364,-122.2385586809635,48.0
1746065828.82,37.872643577398364,-122.2385586809635,53.0
1746065830.82,37.872643577398364,-122.2385586809635,43.0
1746065832.82,37.872643577398364,-122.2385586809635,38.5
1746065834.82,37.872643577398364,-122.2385586809635,49.0
1746065836.8,37.872643577398364,-122.2385586809635,49.0
1746065838.82,37.872643577398364,-122.2385586809635,56.5
1746065840.83,37.872643577398364,-122.2385586809635,45.0
1746065842.82,37.872643577398364,-122.2385586809635,59.5
1746065844.82,37.872643577398364,-122.2385586809635,50.5
1746065846.8,37.872643577398364,-122.2385586809635,50.5
1746065848.82,37.872643577398364,-122.2385586809635,63.5
1746065850.84,37.872643577398364,-122.2385586809635,52.0
1746065852.85,37.872643577398364,-122.2385586809635,53.5
1746065854.8,37.872643577398364,-122.2385586809635,53.5
1746065856.82,37.872736456436876,-122.23828429650003,64.0
1746065858.82,37.872736456436876,-122.23828429650003,39.5
1746065860.82,37.872393301500175,-122.23818909312062,49.0
1746065862.8,37.87241816832447,-122.23811952844609,49.0
1746065864.82,37.87247439922321,-122.23809904431523,44.5
1746065866.82,37.87249114077161,-122.23807254388358,41.5
1746065868.82,37.87249114077161,-122.23807254388358,43.0
1746065870.82,37.87249114077161,-122.23807254388358,51.0
1746065872.81,37.87249114077161,-122.23807254388358,51.0
1746065874.82,37.87249114077161,-122.23807254388358,48.5
1746065876.83,37.87249114077161,-122.23807254388358,47.0
1746065878.82,37.87249114077161,-122.23807254388358,49.0
1746065880.82,37.87249114077161,-122.23807254388358,57.5
1746065882.8,37.87249114077161,-122.23807254388358,57.5
1746065884.82,37.87249114077161,-122.23807254388358,48.5
1746065886.83,37.87249114077161,-122.23807254388358,54.5
1746065888.82,37.87249114077161,-122.23807254388358,56.5
1746065890.8,37.87249114077161,-122.23807254388358,56.5
1746065892.82,37.87249114077161,-122.23807254388358,53.0
1746065894.82,37.87249114077161,-122.23807254388358,62.0
1746065896.84,37.87249114077161,-122.23807254388358,54.0
1746065898.82,37.87249114077161,-122.23807254388358,69.0
1746065900.8,37.87249114077161,-122.23807254388358,69.0
1746065902.82,37.87249114077161,-122.23807254388358,66.0
1746065904.82,37.87249114077161,-122.23807254388358,69.5
1746065906.82,37.87249114077161,-122.23807254388358,56.5
1746065908.82,37.87249114077161,-122.23807254388358,66.0
1746065910.8,37.87249114077161,-122.23807254388358,66.0
1746065912.82,37.87249114077161,-122.23807254388358,53.0
1746065914.82,37.87249114077161,-122.23807254388358,51.5
1746065916.82,37.87249114077161,-122.23807254388358,56.5
1746065918.79,37.87249114077161,-122.23807254388358,56.5
1746065920.83,37.87249114077161,-122.23807254388358,56.0
1746065922.82,37.87249114077161,-122.23807254388358,53.5
1746065924.82,37.87249114077161,-122.23807254388358,48.5
1746065926.82,37.87249114077161,-122.23807254388358,43.0
1746065928.79,37.87249114077161,-122.23807254388358,43.0
1746065930.82,37.87249114077161,-122.23807254388358,55.5
1746065932.82,37.87249114077161,-122.23807254388358,56.0
1746065934.82,37.87249114077161,-122.23807254388358,54.0
1746065936.8,37.87249114077161,-122.23807254388358,54.0
1746065938.82,37.87249114077161,-122.23807254388358,48.0
1746065940.82,37.87249114077161,-122.23807254388358,51.5
1746065942.82,37.87249114077161,-122.23807254388358,49.5
1746065944.82,37.87249114077161,-122.23807254388358,50.0
1746065946.81,37.87249114077161,-122.23807254388358,50.0
1746065948.82,37.87249114077161,-122.23807254388358,64.5
1746065950.83,37.87249114077161,-122.23807254388358,56.5
1746065952.82,37.87249114077161,-122.23807254388358,66.5
1746065954.82,37.87249114077161,-122.23807254388358,64.0
1746065956.82,37.87249114077161,-122.23807254388358,64.0
1746065958.82,37.87249114077161,-122.23807254388358,52.5
1746065960.82,37.87249114077161,-122.23807254388358,57.5
1746065962.82,37.87249114077161,-122.23807254388358,60.0
1746065964.8,37.87249114077161,-122.23807254388358,60.0
1746065966.82,37.87249114077161,-122.23807254388358,65.5
1746065968.82,37.87249114077161,-122.23807254388358,49.0
1746065970.82,37.87249114077161,-122.23807254388358,57.5
1746065972.82,37.87249114077161,-122.23807254388358,60.0
1746065974.8,37.87249114077161,-122.23807254388358,60.0
1746065976.82,37.87249114077161,-122.23807254388358,60.0
1746065978.82,37.87249114077161,-122.23807254388358,62.5
1746065980.82,37.87249114077161,-122.23807254388358,62.0
1746065982.82,37.87249114077161,-122.23807254388358,56.0
1746065984.82,37.87249114077161,-122.23807254388358,56.0
1746065986.82,37.87249114077161,-122.23807254388358,68.5
1746065988.82,37.87139187627062,-122.23866160552822,67.5
1746065990.82,37.87139465169034,-122.23892126332494,71.0
1746065992.8,37.87139465169034,-122.23892126332494,71.0
1746065994.82,37.87139465169034,-122.23892126332494,69.5
1746065996.82,37.87139465169034,-122.23892126332494,70.5
1746065998.82,37.87139465169034,-122.23892126332494,73.0
1746066000.82,37.87139465169034,-122.23892126332494,60.0
1746066002.8,37.87139465169034,-122.23892126332494,60.0
1746066004.83,37.87139465169034,-122.23892126332494,65.5
1746066006.82,37.87139465169034,-122.23892126332494,68.5
1746066008.82,37.87139465169034,-122.23892126332494,68.0
1746066010.82,37.87139465169034,-122.23892126332494,67.5
1746066012.8,37.87139465169034,-122.23892126332494,67.5
1746066014.84,37.87139465169034,-122.23892126332494,71.5
1746066016.82,37.87139465169034,-122.23892126332494,61.0
1746066018.82,37.871092788713206,-122.23866035109216,59.5
1746066020.81,37.871092788713206,-122.23866035109216,59.5
1746066022.82,37.87149350544621,-122.23913813294871,70.5
1746066024.83,37.87142553760803,-122.23916104556861,56.5
1746066026.82,37.87139840326274,-122.23916173932031,59.0
1746066028.82,37.871381335146545,-122.23916858033506,56.5
1746066030.81,37.87138382534939,-122.2391777947611,56.5
1746066032.82,37.87138382534939,-122.2391777947611,64.5
1746066034.82,37.87138382534939,-122.2391777947611,49.5
1746066036.82,37.87138382534939,-122.2391777947611,68.0
1746066038.82,37.87138382534939,-122.2391777947611,60.0
1746066040.8,37.87138382534939,-122.2391777947611,60.0
1746066042.82,37.87138382534939,-122.2391777947611,62.5
1746066044.82,37.87138382534939,-122.2391777947611,80.5
1746066046.8,37.87138382534939,-122.2391777947611,80.5
1746066048.84,37.87138382534939,-122.2391777947611,55.5
1746066050.82,37.87138382534939,-122.2391777947611,58.5
1746066052.82,37.87138382534939,-122.2391777947611,61.5
1746066054.82,37.87138382534939,-122.2391777947611,66.5
1746066056.8,37.87138382534939,-122.2391777947611,66.5
1746066058.82,37.87138382534939,-122.2391777947611,57.5
1746066060.82,37.87138382534939,-122.2391777947611,61.0
1746066062.82,37.87138382534939,-122.2391777947611,61.0
1746066064.83,37.87138382534939,-122.2391777947611,66.0
1746066066.81,37.87366990184667,-122.24177040615112,66.0
1746066068.82,37.873669901845936,-122.2417704061509,68.0
1746066070.82,37.87366833438015,-122.24177052291843,63.5
1746066072.82,37.87366833438015,-122.24177052291843,60.5
1746066074.8,37.87366833438015,-122.24177052291843,60.5
1746066076.82,37.87366833438015,-122.24177052291843,55.0
1746066078.82,37.87366833438015,-122.24177052291843,72.5
1746066080.82,37.87366833438015,-122.24177052291843,77.5
1746066082.8,37.87366833438015,-122.24177052291843,77.5
1746066084.82,37.87366833438015,-122.24177052291843,63.5
1746066086.82,37.87366833438015,-122.24177052291843,58.0
1746066088.82,37.87366833438015,-122.24177052291843,61.5
1746066090.8,37.87366833438015,-122.24177052291843,61.5
1746066092.82,37.87366833438015,-122.24177052291843,68.0
1746066094.82,37.87366833438015,-122.24177052291843,74.0
1746066096.82,37.87366833438015,-122.24177052291843,62.5
1746066098.82,37.87366833438015,-122.24177052291843,69.5
1746066100.8,37.87366833438015,-122.24177052291843,69.5
1746066102.82,37.87366833438015,-122.24177052291843,63.5
1746066104.83,37.87366833438015,-122.24177052291843,87.0
1746066106.82,37.87366833438015,-122.24177052291843,65.5
1746066108.82,37.87366833438015,-122.24177052291843,68.0
1746066110.8,37.87366833438015,-122.24177052291843,68.0
1746066112.82,37.87366833438015,-122.24177052291843,66.5
1746066114.82,37.87366833438015,-122.24177052291843,73.0
1746066116.82,37.87366833438015,-122.24177052291843,62.0
1746066118.82,37.87366833438015,-122.24177052291843,73.0
1746066120.8,37.87366833438015,-122.24177052291843,73.0
1746066122.82,37.87366833438015,-122.24177052291843,63.0
1746066124.82,37.87366833438015,-122.24177052291843,71.5
1746066126.82,37.87366833438015,-122.24177052291843,73.5
1746066128.8,37.87366833438015,-122.24177052291843,73.5
1746066130.82,37.87366833438015,-122.24177052291843,81.5
1746066132.82,37.87366833438015,-122.24177052291843,66.0
1746066134.82,37.87366833438015,-122.24177052291843,72.5
1746066136.82,37.87366833438015,-122.24177052291843,62.5
1746066138.81,37.87366833438015,-122.24177052291843,62.5
1746066140.82,37.87366833438015,-122.24177052291843,67.5
1746066142.82,37.87366833438015,-122.24177052291843,58.0
1746066144.82,37.87366833438015,-122.24177052291843,61.5
1746066146.8,37.87366833438015,-122.24177052291843,61.5
1746066148.84,37.87366833438015,-122.24177052291843,71.0
1746066150.82,37.87366833438015,-122.24177052291843,75.0
1746066152.82,37.87366833438015,-122.24177052291843,68.0
1746066154.82,37.87149287933068,-122.24096656424796,70.5
1746066156.8,37.87149287933068,-122.24096656424796,70.5
1746066158.83,37.871513223796434,-122.24097750791974,63.5
1746066160.82,37.871513223796434,-122.24097750791974,65.5
1746066162.82,37.871513223796434,-122.24097750791974,65.5
1746066164.82,37.871513223796434,-122.24097750791974,63.5
1746066166.8,37.871513223796434,-122.24097750791974,63.5
1746066168.82,37.871513223796434,-122.24097750791974,57.0
1746066170.82,37.87148380333739,-122.24102673611134,65.0
1746066172.82,37.87148241290903,-122.24103226886352,64.5
1746066174.82,37.87148241290903,-122.24103226886352,57.5
1746066176.8,37.87148241290903,-122.24103226886352,57.5
1746066178.82,37.87148241290903,-122.24103226886352,73.5
1746066180.82,37.87148241290903,-122.24103226886352,61.5
1746066182.82,37.87148241290903,-122.24103226886352,58.0
1746066184.8,37.87148241290903,-122.24103226886352,58.0
1746066186.82,37.87148241290903,-122.24103226886352,58.0
1746066188.83,37.87148241290903,-122.24103226886352,59.5
1746066190.82,37.87148241290903,-122.24103226886352,67.0
1746066192.82,37.87148241290903,-122.24103226886352,57.5
1746066194.8,37.87148241290903,-122.24103226886352,57.5
1746066196.82,37.87397284129445,-122.24207200334152,55.0
1746066198.82,37.87397284129445,-122.24207200334152,68.5
1746066200.82,37.87397284129445,-122.24207200334152,59.0
1746066202.82,37.87397284129445,-122.24207200334152,59.5
1746066204.8,37.87382254378371,-122.24183155303355,59.5
1746066206.83,37.873922242290526,-122.24185947931932,73.0
1746066208.83,37.87391864734411,-122.24185256854881,58.0
1746066210.82,37.87391864734411,-122.24185256854881,64.0
1746066212.8,37.87391864734411,-122.24185256854881,64.0
1746066214.82,37.87391864734411,-122.24185256854881,51.5
1746066216.82,37.87386601780358,-122.24183576109661,64.5
1746066218.83,37.873865160160385,-122.24183548719922,60.0
1746066220.82,37.87386373470567,-122.24183503197447,67.5
1746066222.81,37.87386373470567,-122.24183503197447,67.5
1746066224.82,37.87386373470567,-122.24183503197447,69.5
1746066226.82,37.87386373470567,-122.24183503197447,57.0
1746066228.82,37.87386373470567,-122.24183503197447,68.0
1746066230.8,37.87386373470567,-122.24183503197447,68.0
1746066232.82,37.87386373470567,-122.24183503197447,67.0
1746066234.82,37.87386373470567,-122.24183503197447,61.5
1746066236.82,37.87386373470567,-122.24183503197447,72.0
1746066238.82,37.87386373470567,-122.24183503197447,55.5
1746066240.79,37.87386373470567,-122.24183503197447,55.5
1746066242.82,37.87386373470567,-122.24183503197447,64.5
1746066244.82,37.874043544981674,-122.24208260573816,69.0
1746066246.82,37.874043544981674,-122.24208260573816,67.0
1746066248.83,37.874043544981674,-122.24208260573816,64.0
1746066250.8,37.874043544981674,-122.24208260573816,64.0
1746066252.82,37.874043544981674,-122.24208260573816,60.5
1746066254.82,37.874043544981674,-122.24208260573816,55.0
1746066256.82,37.874043544981674,-122.24208260573816,56.5
1746066258.8,37.874043544981674,-122.24208260573816,56.5
